# M_T	 rho_0	 phi_0	 R_F	 N_F	 R_B	 R_B_0	 N_B	 N_B/N_F	 omega	 mu	 lambda	 R_G	 
0.0000000000e+00 0.0000000000e+00 0.0000000000e+00 1.4766250610e-10 0.0000000000e+00 1.4766250610e-10 0.0000000000e+00 0.0000000000e+00 -nan 0.0000000000e+00 1.0000000000e+00 0.0000000000e+00 1.4766250610e-10
6.5459732577e-01 4.9806057630e-07 0.0000000000e+00 4.4320178035e+02 6.6084112531e-01 1.4766250610e-10 0.0000000000e+00 0.0000000000e+00 0.0000000000e+00 0.0000000000e+00 1.0000000000e+00 0.0000000000e+00 3.4632764181e+02
6.0713996606e-01 1.9922423052e-06 0.0000000000e+00 4.1638165478e+02 6.1281567389e-01 1.4766250610e-10 0.0000000000e+00 0.0000000000e+00 0.0000000000e+00 0.0000000000e+00 1.0000000000e+00 0.0000000000e+00 3.2044240449e+02
5.8192731777e-01 4.4825451867e-06 0.0000000000e+00 4.4561398582e+02 5.8730648735e-01 1.4766250610e-10 0.0000000000e+00 0.0000000000e+00 0.0000000000e+00 0.0000000000e+00 1.0000000000e+00 0.0000000000e+00 3.4616521305e+02
5.6298291657e-01 7.9689692207e-06 0.0000000000e+00 4.8206123091e+02 5.6814363783e-01 1.4766250610e-10 0.0000000000e+00 0.0000000000e+00 0.0000000000e+00 0.0000000000e+00 1.0000000000e+00 0.0000000000e+00 3.7968460193e+02
5.4927540236e-01 1.2451514407e-05 0.0000000000e+00 5.2160821339e+02 5.5428081641e-01 1.4766250610e-10 0.0000000000e+00 0.0000000000e+00 0.0000000000e+00 0.0000000000e+00 1.0000000000e+00 0.0000000000e+00 4.1743452162e+02
5.3963811952e-01 1.7930180747e-05 0.0000000000e+00 5.6256002292e+02 5.4453599457e-01 1.4766250610e-10 0.0000000000e+00 0.0000000000e+00 0.0000000000e+00 0.0000000000e+00 1.0000000000e+00 0.0000000000e+00 4.5779068454e+02
5.3310996920e-01 2.4404968238e-05 0.0000000000e+00 6.0392997402e+02 5.3793595731e-01 1.4766250610e-10 0.0000000000e+00 0.0000000000e+00 0.0000000000e+00 0.0000000000e+00 1.0000000000e+00 0.0000000000e+00 4.9970468689e+02
5.2892600915e-01 3.1875876883e-05 0.0000000000e+00 6.4521632420e+02 5.3370651370e-01 1.4766250610e-10 0.0000000000e+00 0.0000000000e+00 0.0000000000e+00 0.0000000000e+00 1.0000000000e+00 0.0000000000e+00 5.4244559928e+02
5.2648542485e-01 4.0342906680e-05 0.0000000000e+00 6.8635085166e+02 5.3123981802e-01 1.4766250610e-10 0.0000000000e+00 0.0000000000e+00 0.0000000000e+00 0.0000000000e+00 1.0000000000e+00 0.0000000000e+00 5.8576239545e+02
5.2533474153e-01 4.9806057630e-05 0.0000000000e+00 7.2733773104e+02 5.3007709990e-01 1.4766250610e-10 0.0000000000e+00 0.0000000000e+00 0.0000000000e+00 0.0000000000e+00 1.0000000000e+00 0.0000000000e+00 6.2949264663e+02
5.2384337148e-01 6.0265329732e-05 0.0000000000e+00 7.3832729675e+02 5.2857003769e-01 1.4766250610e-10 0.0000000000e+00 0.0000000000e+00 0.0000000000e+00 0.0000000000e+00 1.0000000000e+00 0.0000000000e+00 6.6024336352e+02
5.2138281112e-01 7.1720722987e-05 0.0000000000e+00 7.3832729675e+02 5.2608354261e-01 1.4766250610e-10 0.0000000000e+00 0.0000000000e+00 0.0000000000e+00 0.0000000000e+00 1.0000000000e+00 0.0000000000e+00 6.7982341183e+02
5.1743119428e-01 8.4172237394e-05 0.0000000000e+00 7.3832729675e+02 5.2209032124e-01 1.4766250610e-10 0.0000000000e+00 0.0000000000e+00 0.0000000000e+00 0.0000000000e+00 1.0000000000e+00 0.0000000000e+00 6.9404331117e+02
5.1071145915e-01 9.7619872954e-05 0.0000000000e+00 7.3831991362e+02 5.1530005729e-01 1.4766250610e-10 0.0000000000e+00 0.0000000000e+00 0.0000000000e+00 0.0000000000e+00 1.0000000000e+00 0.0000000000e+00 7.0456426473e+02
4.9903599552e-01 1.1206362967e-04 0.0000000000e+00 7.3831991362e+02 5.0350264526e-01 1.4766250610e-10 0.0000000000e+00 0.0000000000e+00 0.0000000000e+00 0.0000000000e+00 1.0000000000e+00 0.0000000000e+00 7.1256757256e+02
4.7874500787e-01 1.2750350753e-04 0.0000000000e+00 7.3831991362e+02 4.8300118585e-01 1.4766250610e-10 0.0000000000e+00 0.0000000000e+00 0.0000000000e+00 0.0000000000e+00 1.0000000000e+00 0.0000000000e+00 7.1865126781e+02
4.4244766911e-01 1.4393950655e-04 0.0000000000e+00 7.3832729675e+02 4.4633094350e-01 1.4766250610e-10 0.0000000000e+00 0.0000000000e+00 0.0000000000e+00 0.0000000000e+00 1.0000000000e+00 0.0000000000e+00 7.2336908488e+02
3.7773834893e-01 1.6137162672e-04 0.0000000000e+00 7.3831991362e+02 3.8096554559e-01 1.4766250610e-10 0.0000000000e+00 0.0000000000e+00 0.0000000000e+00 0.0000000000e+00 1.0000000000e+00 0.0000000000e+00 7.2675793940e+02
2.8468013068e-01 1.7979986804e-04 0.0000000000e+00 7.3832360519e+02 2.8697816484e-01 1.4766250610e-10 0.0000000000e+00 0.0000000000e+00 0.0000000000e+00 0.0000000000e+00 1.0000000000e+00 0.0000000000e+00 7.2828255477e+02
2.0607499059e-01 1.9922423052e-04 0.0000000000e+00 7.3832729675e+02 2.0759673945e-01 1.4766250610e-10 0.0000000000e+00 0.0000000000e+00 0.0000000000e+00 0.0000000000e+00 1.0000000000e+00 0.0000000000e+00 7.2731167380e+02
1.0289160110e-01 2.1964471415e-04 0.0000000000e+00 5.0907481743e+02 1.0339334964e-01 1.4766250610e-10 0.0000000000e+00 0.0000000000e+00 0.0000000000e+00 0.0000000000e+00 1.0000000000e+00 0.0000000000e+00 4.4497727057e+02
9.2826367742e-02 2.4106131893e-04 0.0000000000e+00 1.2641758467e+02 9.3224855802e-02 1.4766250610e-10 0.0000000000e+00 0.0000000000e+00 0.0000000000e+00 0.0000000000e+00 1.0000000000e+00 0.0000000000e+00 4.5112741395e+01
9.8092351449e-02 2.6347404486e-04 0.0000000000e+00 6.1845967622e+01 9.8548999032e-02 1.4766250610e-10 0.0000000000e+00 0.0000000000e+00 0.0000000000e+00 0.0000000000e+00 1.0000000000e+00 0.0000000000e+00 2.0019344265e+01
1.0750529122e-01 2.8688289195e-04 0.0000000000e+00 3.9366867387e+01 1.0808062483e-01 1.4766250610e-10 0.0000000000e+00 0.0000000000e+00 0.0000000000e+00 0.0000000000e+00 1.0000000000e+00 0.0000000000e+00 1.3802752758e+01
1.2044232486e-01 3.1128786018e-04 0.0000000000e+00 2.8833490854e+01 1.2120636600e-01 1.4766250610e-10 0.0000000000e+00 0.0000000000e+00 0.0000000000e+00 0.0000000000e+00 1.0000000000e+00 0.0000000000e+00 1.1390316564e+01
1.3712819257e-01 3.3668894958e-04 0.0000000000e+00 2.3016958029e+01 1.3817669311e-01 1.4766250610e-10 0.0000000000e+00 0.0000000000e+00 0.0000000000e+00 0.0000000000e+00 1.0000000000e+00 0.0000000000e+00 1.0626163095e+01
1.5749409375e-01 3.6308616012e-04 0.0000000000e+00 1.9556622748e+01 1.5895037031e-01 1.4766250610e-10 0.0000000000e+00 0.0000000000e+00 0.0000000000e+00 0.0000000000e+00 1.0000000000e+00 0.0000000000e+00 1.0259775502e+01
1.8164795552e-01 3.9047949182e-04 0.0000000000e+00 1.7352406551e+01 1.8367221575e-01 1.4766250610e-10 0.0000000000e+00 0.0000000000e+00 0.0000000000e+00 0.0000000000e+00 1.0000000000e+00 0.0000000000e+00 1.0057662447e+01
2.0988545589e-01 4.1886894466e-04 0.0000000000e+00 1.5886452413e+01 2.1268774261e-01 1.4766250610e-10 0.0000000000e+00 0.0000000000e+00 0.0000000000e+00 0.0000000000e+00 1.0000000000e+00 0.0000000000e+00 9.9746022872e+00
2.4192976526e-01 4.4825451867e-04 0.0000000000e+00 1.4897942782e+01 2.4576145687e-01 1.4766250610e-10 0.0000000000e+00 0.0000000000e+00 0.0000000000e+00 0.0000000000e+00 1.0000000000e+00 0.0000000000e+00 9.9561444739e+00
2.7755780485e-01 4.7863621382e-04 0.0000000000e+00 1.4212999288e+01 2.8271508734e-01 1.4766250610e-10 0.0000000000e+00 0.0000000000e+00 0.0000000000e+00 0.0000000000e+00 1.0000000000e+00 0.0000000000e+00 9.9819854125e+00
3.1586572792e-01 5.1001403013e-04 0.0000000000e+00 1.3738972361e+01 3.2265926264e-01 1.4766250610e-10 0.0000000000e+00 0.0000000000e+00 0.0000000000e+00 0.0000000000e+00 1.0000000000e+00 0.0000000000e+00 1.0050279322e+01
3.5468066514e-01 5.4238796759e-04 0.0000000000e+00 1.3413545251e+01 3.6335425349e-01 1.4766250610e-10 0.0000000000e+00 0.0000000000e+00 0.0000000000e+00 0.0000000000e+00 1.0000000000e+00 0.0000000000e+00 1.0127802137e+01
3.6020890151e-01 5.7575802620e-04 0.0000000000e+00 1.3374581961e+01 3.6916845590e-01 1.4766250610e-10 0.0000000000e+00 0.0000000000e+00 0.0000000000e+00 0.0000000000e+00 1.0000000000e+00 0.0000000000e+00 1.0135185263e+01
3.6238895763e-01 6.1012420596e-04 0.0000000000e+00 1.3358921660e+01 3.7146254879e-01 1.4766250610e-10 0.0000000000e+00 0.0000000000e+00 0.0000000000e+00 0.0000000000e+00 1.0000000000e+00 0.0000000000e+00 1.0142568388e+01
3.7160201900e-01 6.4548650688e-04 0.0000000000e+00 1.3290339347e+01 3.8116540679e-01 1.4766250610e-10 0.0000000000e+00 0.0000000000e+00 0.0000000000e+00 0.0000000000e+00 1.0000000000e+00 0.0000000000e+00 1.0150874404e+01
3.9530873098e-01 6.8184492895e-04 0.0000000000e+00 1.3097476829e+01 4.0619380342e-01 1.4766250610e-10 0.0000000000e+00 0.0000000000e+00 0.0000000000e+00 0.0000000000e+00 1.0000000000e+00 0.0000000000e+00 1.0151335849e+01
4.2468517702e-01 7.1919947217e-04 0.0000000000e+00 1.2879133876e+01 4.3733430569e-01 1.4766250610e-10 0.0000000000e+00 0.0000000000e+00 0.0000000000e+00 0.0000000000e+00 1.0000000000e+00 0.0000000000e+00 1.0158257529e+01
4.5764056001e-01 7.5755013655e-04 0.0000000000e+00 1.2676955930e+01 4.7243836866e-01 1.4766250610e-10 0.0000000000e+00 0.0000000000e+00 0.0000000000e+00 0.0000000000e+00 1.0000000000e+00 0.0000000000e+00 1.0159180420e+01
4.9365011244e-01 7.9689692207e-04 0.0000000000e+00 1.2499205747e+01 5.1100262915e-01 1.4766250610e-10 0.0000000000e+00 0.0000000000e+00 0.0000000000e+00 0.0000000000e+00 1.0000000000e+00 0.0000000000e+00 1.0160564756e+01
5.3709663584e-01 8.3723982875e-04 0.0000000000e+00 1.2329437125e+01 5.5782339676e-01 1.4766250610e-10 0.0000000000e+00 0.0000000000e+00 0.0000000000e+00 0.0000000000e+00 1.0000000000e+00 0.0000000000e+00 1.0192404484e+01
5.8359572475e-01 8.7857885659e-04 0.0000000000e+00 1.2187867139e+01 6.0829097701e-01 1.4766250610e-10 0.0000000000e+00 0.0000000000e+00 0.0000000000e+00 0.0000000000e+00 1.0000000000e+00 0.0000000000e+00 1.0219399036e+01
6.3343243602e-01 9.2091400557e-04 0.0000000000e+00 1.2079593318e+01 6.6279605785e-01 1.4766250610e-10 0.0000000000e+00 0.0000000000e+00 0.0000000000e+00 0.0000000000e+00 1.0000000000e+00 0.0000000000e+00 1.0256314662e+01
6.8990482388e-01 9.6424527571e-04 0.0000000000e+00 1.1975220152e+01 7.2508731286e-01 1.4766250610e-10 0.0000000000e+00 0.0000000000e+00 0.0000000000e+00 0.0000000000e+00 1.0000000000e+00 0.0000000000e+00 1.0297844742e+01
7.4738544790e-01 1.0085726670e-03 0.0000000000e+00 1.1899514278e+01 7.8907712247e-01 1.4766250610e-10 0.0000000000e+00 0.0000000000e+00 0.0000000000e+00 0.0000000000e+00 1.0000000000e+00 0.0000000000e+00 1.0347911560e+01
8.1241901927e-01 1.0538961794e-03 0.0000000000e+00 1.1840038301e+01 8.6220390888e-01 1.4766250610e-10 0.0000000000e+00 0.0000000000e+00 0.0000000000e+00 0.0000000000e+00 1.0000000000e+00 0.0000000000e+00 1.0398209102e+01
8.7834518320e-01 1.1002158130e-03 0.0000000000e+00 1.1788435734e+01 9.3714469278e-01 1.4766250610e-10 0.0000000000e+00 0.0000000000e+00 0.0000000000e+00 0.0000000000e+00 1.0000000000e+00 0.0000000000e+00 1.0452659651e+01
9.4720028700e-01 1.1475315678e-03 0.0000000000e+00 1.1748996579e+01 1.0163074403e+00 1.4766250610e-10 0.0000000000e+00 0.0000000000e+00 0.0000000000e+00 0.0000000000e+00 1.0000000000e+00 0.0000000000e+00 1.0503880083e+01
1.0185024925e+00 1.1958434437e-03 0.0000000000e+00 1.1711727658e+01 1.0992809583e+00 1.4766250610e-10 0.0000000000e+00 0.0000000000e+00 0.0000000000e+00 0.0000000000e+00 1.0000000000e+00 0.0000000000e+00 1.0553716178e+01
1.0898298081e+00 1.2451514407e-03 0.0000000000e+00 1.1686860081e+01 1.1833307324e+00 1.4766250610e-10 0.0000000000e+00 0.0000000000e+00 0.0000000000e+00 0.0000000000e+00 1.0000000000e+00 0.0000000000e+00 1.0602398661e+01
1.1647025612e+00 1.2954555589e-03 0.0000000000e+00 1.1659505025e+01 1.2727345343e+00 1.4766250610e-10 0.0000000000e+00 0.0000000000e+00 0.0000000000e+00 0.0000000000e+00 1.0000000000e+00 0.0000000000e+00 1.0644620909e+01
1.2374329073e+00 1.3467557983e-03 0.0000000000e+00 1.1632128338e+01 1.3607763645e+00 1.4766250610e-10 0.0000000000e+00 0.0000000000e+00 0.0000000000e+00 0.0000000000e+00 1.0000000000e+00 0.0000000000e+00 1.0680613644e+01
1.3120080903e+00 1.3990521588e-03 0.0000000000e+00 1.1605948526e+01 1.4523412013e+00 1.4766250610e-10 0.0000000000e+00 0.0000000000e+00 0.0000000000e+00 0.0000000000e+00 1.0000000000e+00 0.0000000000e+00 1.0711991927e+01
1.3826581782e+00 1.4523446405e-03 0.0000000000e+00 1.1581513554e+01 1.5403428722e+00 1.4766250610e-10 0.0000000000e+00 0.0000000000e+00 0.0000000000e+00 0.0000000000e+00 1.0000000000e+00 0.0000000000e+00 1.0732064799e+01
1.4540041216e+00 1.5066332433e-03 0.0000000000e+00 1.1551678229e+01 1.6305312348e+00 1.4766250610e-10 0.0000000000e+00 0.0000000000e+00 0.0000000000e+00 0.0000000000e+00 1.0000000000e+00 0.0000000000e+00 1.0748676831e+01
1.5214880281e+00 1.5619179673e-03 0.0000000000e+00 1.1518555106e+01 1.7171158520e+00 1.4766250610e-10 0.0000000000e+00 0.0000000000e+00 0.0000000000e+00 0.0000000000e+00 1.0000000000e+00 0.0000000000e+00 1.0761020494e+01
1.5877269638e+00 1.6181988124e-03 0.0000000000e+00 1.1481603429e+01 1.8033972869e+00 1.4766250610e-10 0.0000000000e+00 0.0000000000e+00 0.0000000000e+00 0.0000000000e+00 1.0000000000e+00 0.0000000000e+00 1.0766673199e+01
1.6513585096e+00 1.6754757787e-03 0.0000000000e+00 1.1440275232e+01 1.8875542500e+00 1.4766250610e-10 0.0000000000e+00 0.0000000000e+00 0.0000000000e+00 0.0000000000e+00 1.0000000000e+00 0.0000000000e+00 1.0759059351e+01
1.7102448788e+00 1.7337488661e-03 0.0000000000e+00 1.1397050782e+01 1.9666283744e+00 1.4766250610e-10 0.0000000000e+00 0.0000000000e+00 0.0000000000e+00 0.0000000000e+00 1.0000000000e+00 0.0000000000e+00 1.0745908159e+01
1.7676465690e+00 1.7930180747e-03 0.0000000000e+00 1.1347409359e+01 2.0448852552e+00 1.4766250610e-10 0.0000000000e+00 0.0000000000e+00 0.0000000000e+00 0.0000000000e+00 1.0000000000e+00 0.0000000000e+00 1.0726988900e+01
1.8176209860e+00 1.8532834044e-03 0.0000000000e+00 1.1296917145e+01 2.1140310110e+00 1.4766250610e-10 0.0000000000e+00 0.0000000000e+00 0.0000000000e+00 0.0000000000e+00 1.0000000000e+00 0.0000000000e+00 1.0701032600e+01
1.8686865371e+00 1.9145448553e-03 0.0000000000e+00 1.1237498849e+01 2.1857451948e+00 1.4766250610e-10 0.0000000000e+00 0.0000000000e+00 0.0000000000e+00 0.0000000000e+00 1.0000000000e+00 0.0000000000e+00 1.0670346486e+01
1.9124073717e+00 1.9768024273e-03 0.0000000000e+00 1.1179947964e+01 2.2480494267e+00 1.4766250610e-10 0.0000000000e+00 0.0000000000e+00 0.0000000000e+00 0.0000000000e+00 1.0000000000e+00 0.0000000000e+00 1.0635161279e+01
1.9543959908e+00 2.0400561205e-03 0.0000000000e+00 1.1115893584e+01 2.3087540888e+00 1.4766250610e-10 0.0000000000e+00 0.0000000000e+00 0.0000000000e+00 0.0000000000e+00 1.0000000000e+00 0.0000000000e+00 1.0588670662e+01
1.9922626099e+00 2.1043059348e-03 0.0000000000e+00 1.1049640128e+01 2.3642744819e+00 1.4766250610e-10 0.0000000000e+00 0.0000000000e+00 0.0000000000e+00 0.0000000000e+00 1.0000000000e+00 0.0000000000e+00 1.0546563776e+01
2.0250344145e+00 2.1695518703e-03 0.0000000000e+00 1.0983588555e+01 2.4129805582e+00 1.4766250610e-10 0.0000000000e+00 0.0000000000e+00 0.0000000000e+00 0.0000000000e+00 1.0000000000e+00 0.0000000000e+00 1.0490844252e+01
2.0563559921e+00 2.2357939270e-03 0.0000000000e+00 1.0910262008e+01 2.4601551061e+00 1.4766250610e-10 0.0000000000e+00 0.0000000000e+00 0.0000000000e+00 0.0000000000e+00 1.0000000000e+00 0.0000000000e+00 1.0436624425e+01
2.0823185355e+00 2.3030321048e-03 0.0000000000e+00 1.0840547712e+01 2.4997577555e+00 1.4766250610e-10 0.0000000000e+00 0.0000000000e+00 0.0000000000e+00 0.0000000000e+00 1.0000000000e+00 0.0000000000e+00 1.0383673574e+01
2.1059211585e+00 2.3712664037e-03 0.0000000000e+00 1.0766456896e+01 2.5362138388e+00 1.4766250610e-10 0.0000000000e+00 0.0000000000e+00 0.0000000000e+00 0.0000000000e+00 1.0000000000e+00 0.0000000000e+00 1.0322185983e+01
2.1264316684e+00 2.4404968238e-03 0.0000000000e+00 1.0689662299e+01 2.5682695116e+00 1.4766250610e-10 0.0000000000e+00 0.0000000000e+00 0.0000000000e+00 0.0000000000e+00 1.0000000000e+00 0.0000000000e+00 1.0259775502e+01
2.1429583149e+00 2.5107233651e-03 0.0000000000e+00 1.0617503785e+01 2.5943892134e+00 1.4766250610e-10 0.0000000000e+00 0.0000000000e+00 0.0000000000e+00 0.0000000000e+00 1.0000000000e+00 0.0000000000e+00 1.0198057189e+01
2.1582938241e+00 2.5819460275e-03 0.0000000000e+00 1.0537068096e+01 2.6189003467e+00 1.4766250610e-10 0.0000000000e+00 0.0000000000e+00 0.0000000000e+00 0.0000000000e+00 1.0000000000e+00 0.0000000000e+00 1.0128725028e+01
2.1703169586e+00 2.6541648111e-03 0.0000000000e+00 1.0459069415e+01 2.6383138481e+00 1.4766250610e-10 0.0000000000e+00 0.0000000000e+00 0.0000000000e+00 0.0000000000e+00 1.0000000000e+00 0.0000000000e+00 1.0059623590e+01
2.1796109075e+00 2.7273797158e-03 0.0000000000e+00 1.0384264800e+01 2.6534702783e+00 1.4766250610e-10 0.0000000000e+00 0.0000000000e+00 0.0000000000e+00 0.0000000000e+00 1.0000000000e+00 0.0000000000e+00 9.9924832938e+00
2.1873171310e+00 2.8015907417e-03 0.0000000000e+00 1.0304456388e+01 2.6661585139e+00 1.4766250610e-10 0.0000000000e+00 0.0000000000e+00 0.0000000000e+00 0.0000000000e+00 1.0000000000e+00 0.0000000000e+00 9.9184213181e+00
2.1925644590e+00 2.8767978887e-03 0.0000000000e+00 1.0228116026e+01 2.6748704062e+00 1.4766250610e-10 0.0000000000e+00 0.0000000000e+00 0.0000000000e+00 0.0000000000e+00 1.0000000000e+00 0.0000000000e+00 9.8517424677e+00
2.1959367517e+00 2.9530011569e-03 0.0000000000e+00 1.0154349664e+01 2.6805217995e+00 1.4766250610e-10 0.0000000000e+00 0.0000000000e+00 0.0000000000e+00 0.0000000000e+00 1.0000000000e+00 0.0000000000e+00 9.7863325919e+00
2.1977459471e+00 3.0302005462e-03 0.0000000000e+00 1.0075348781e+01 2.6835837663e+00 1.4766250610e-10 0.0000000000e+00 0.0000000000e+00 0.0000000000e+00 0.0000000000e+00 1.0000000000e+00 0.0000000000e+00 9.7119245322e+00
2.1979155586e+00 3.1083960567e-03 0.0000000000e+00 1.0001084923e+01 2.6838767288e+00 1.4766250610e-10 0.0000000000e+00 0.0000000000e+00 0.0000000000e+00 0.0000000000e+00 1.0000000000e+00 0.0000000000e+00 9.6411503545e+00
2.1967207791e+00 3.1875876883e-03 0.0000000000e+00 9.9288398885e+00 2.6818453202e+00 1.4766250610e-10 0.0000000000e+00 0.0000000000e+00 0.0000000000e+00 0.0000000000e+00 1.0000000000e+00 0.0000000000e+00 9.5784514701e+00
2.1940701130e+00 3.2677754411e-03 0.0000000000e+00 9.8517496778e+00 2.6772985847e+00 1.4766250610e-10 0.0000000000e+00 0.0000000000e+00 0.0000000000e+00 0.0000000000e+00 1.0000000000e+00 0.0000000000e+00 9.5033512423e+00
2.1903953311e+00 3.3489593150e-03 0.0000000000e+00 9.7798939875e+00 2.6709445182e+00 1.4766250610e-10 0.0000000000e+00 0.0000000000e+00 0.0000000000e+00 0.0000000000e+00 1.0000000000e+00 0.0000000000e+00 9.4395564253e+00
2.1858597620e+00 3.4311393101e-03 0.0000000000e+00 9.7103527340e+00 2.6630628973e+00 1.4766250610e-10 0.0000000000e+00 0.0000000000e+00 0.0000000000e+00 0.0000000000e+00 1.0000000000e+00 0.0000000000e+00 9.3744926335e+00
2.1799647454e+00 3.5143154263e-03 0.0000000000e+00 9.6383384220e+00 2.6527695811e+00 1.4766250610e-10 0.0000000000e+00 0.0000000000e+00 0.0000000000e+00 0.0000000000e+00 1.0000000000e+00 0.0000000000e+00 9.3060256824e+00
2.1735314650e+00 3.5984876637e-03 0.0000000000e+00 9.5690711517e+00 2.6414778306e+00 1.4766250610e-10 0.0000000000e+00 0.0000000000e+00 0.0000000000e+00 0.0000000000e+00 1.0000000000e+00 0.0000000000e+00 9.2361743954e+00
2.1667221939e+00 3.6836560223e-03 0.0000000000e+00 9.5056656791e+00 2.6294806234e+00 1.4766250610e-10 0.0000000000e+00 0.0000000000e+00 0.0000000000e+00 0.0000000000e+00 1.0000000000e+00 0.0000000000e+00 9.1801087876e+00
2.1586113890e+00 3.7698205020e-03 0.0000000000e+00 9.4381792993e+00 2.6151429707e+00 1.4766250610e-10 0.0000000000e+00 0.0000000000e+00 0.0000000000e+00 0.0000000000e+00 1.0000000000e+00 0.0000000000e+00 9.1106612652e+00
2.1501574658e+00 3.8569811028e-03 0.0000000000e+00 9.3736346336e+00 2.6001444363e+00 1.4766250610e-10 0.0000000000e+00 0.0000000000e+00 0.0000000000e+00 0.0000000000e+00 1.0000000000e+00 0.0000000000e+00 9.0510194561e+00
2.1416217240e+00 3.9451378248e-03 0.0000000000e+00 9.3128968918e+00 2.5849552301e+00 1.4766250610e-10 0.0000000000e+00 0.0000000000e+00 0.0000000000e+00 0.0000000000e+00 1.0000000000e+00 0.0000000000e+00 8.9960497810e+00
